"Harmonic Energy (eV)"	"Harmonic: 1: spatial_profile-8.json"	"Harmonic Energy (eV)"	"Harmonic: 3: spatial_profile-8.json"	"Harmonic Energy (eV)"	"Harmonic: 5: spatial_profile-8.json"	"Harmonic Energy (eV)"	"Harmonic: 7: spatial_profile-8.json"	"Harmonic Energy (eV)"	"Harmonic: 9: spatial_profile-8.json"	"Harmonic Energy (eV)"	"Harmonic: 11: spatial_profile-8.json"
1.86203e+4	4.34277e-6	5.58608e+4	2.74720e-6	9.31014e+4	2.29883e-6	1.30342e+5	2.07725e-6	1.67582e+5	1.94327e-6	2.04823e+5	1.85297e-6
1.85214e+4	4.35319e-6	5.55643e+4	2.75269e-6	9.26072e+4	2.30277e-6	1.29650e+5	2.08036e-6	1.66693e+5	1.94585e-6	2.03736e+5	1.85519e-6
1.84120e+4	4.36482e-6	5.52359e+4	2.75883e-6	9.20598e+4	2.30717e-6	1.28884e+5	2.08384e-6	1.65708e+5	1.94875e-6	2.02532e+5	1.85767e-6
1.82922e+4	4.37767e-6	5.48767e+4	2.76561e-6	9.14611e+4	2.31203e-6	1.28046e+5	2.08769e-6	1.64630e+5	1.95195e-6	2.01214e+5	1.86042e-6
1.81627e+4	4.39172e-6	5.44880e+4	2.77302e-6	9.08133e+4	2.31735e-6	1.27139e+5	2.09190e-6	1.63464e+5	1.95545e-6	1.99789e+5	1.86342e-6
1.80237e+4	4.40696e-6	5.40712e+4	2.78107e-6	9.01187e+4	2.32313e-6	1.26166e+5	2.09648e-6	1.62214e+5	1.95926e-6	1.98261e+5	1.86669e-6
1.78759e+4	4.42338e-6	5.36277e+4	2.78974e-6	8.93795e+4	2.32937e-6	1.25131e+5	2.10141e-6	1.60883e+5	1.96336e-6	1.96635e+5	1.87022e-6
1.77196e+4	4.44096e-6	5.31589e+4	2.79904e-6	8.85982e+4	2.33605e-6	1.24038e+5	2.10670e-6	1.59477e+5	1.96777e-6	1.94916e+5	1.87400e-6
1.75555e+4	4.45970e-6	5.26664e+4	2.80895e-6	8.77774e+4	2.34318e-6	1.22888e+5	2.11235e-6	1.57999e+5	1.97247e-6	1.93110e+5	1.87804e-6
1.73839e+4	4.47957e-6	5.21517e+4	2.81947e-6	8.69195e+4	2.35074e-6	1.21687e+5	2.11835e-6	1.56455e+5	1.97747e-6	1.91223e+5	1.88234e-6
1.72054e+4	4.50056e-6	5.16163e+4	2.83059e-6	8.60272e+4	2.35875e-6	1.20438e+5	2.12469e-6	1.54849e+5	1.98276e-6	1.89260e+5	1.88689e-6
1.70206e+4	4.52266e-6	5.10618e+4	2.84231e-6	8.51031e+4	2.36719e-6	1.19144e+5	2.13139e-6	1.53186e+5	1.98834e-6	1.87227e+5	1.89168e-6
1.68300e+4	4.54585e-6	5.04899e+4	2.85462e-6	8.41498e+4	2.37606e-6	1.17810e+5	2.13842e-6	1.51470e+5	1.99420e-6	1.85130e+5	1.89673e-6
1.66340e+4	4.57011e-6	4.99020e+4	2.86750e-6	8.31699e+4	2.38535e-6	1.16438e+5	2.14580e-6	1.49706e+5	2.00036e-6	1.82974e+5	1.90202e-6
1.64332e+4	4.59543e-6	4.92997e+4	2.88096e-6	8.21661e+4	2.39506e-6	1.15033e+5	2.15351e-6	1.47899e+5	2.00679e-6	1.80765e+5	1.90756e-6
1.62282e+4	4.62179e-6	4.86845e+4	2.89498e-6	8.11408e+4	2.40518e-6	1.13597e+5	2.16155e-6	1.46053e+5	2.01351e-6	1.78510e+5	1.91334e-6
1.60193e+4	4.64917e-6	4.80580e+4	2.90955e-6	8.00966e+4	2.41571e-6	1.12135e+5	2.16992e-6	1.44174e+5	2.02050e-6	1.76212e+5	1.91936e-6
1.58072e+4	4.67755e-6	4.74215e+4	2.92468e-6	7.90358e+4	2.42664e-6	1.10650e+5	2.17862e-6	1.42264e+5	2.02776e-6	1.73879e+5	1.92562e-6
1.55922e+4	4.70692e-6	4.67765e+4	2.94034e-6	7.79609e+4	2.43797e-6	1.09145e+5	2.18764e-6	1.40330e+5	2.03530e-6	1.71514e+5	1.93212e-6
1.53748e+4	4.73726e-6	4.61244e+4	2.95654e-6	7.68740e+4	2.44970e-6	1.07624e+5	2.19697e-6	1.38373e+5	2.04311e-6	1.69123e+5	1.93884e-6
1.51555e+4	4.76854e-6	4.54665e+4	2.97325e-6	7.57775e+4	2.46181e-6	1.06089e+5	2.20662e-6	1.36400e+5	2.05118e-6	1.66711e+5	1.94580e-6
1.49347e+4	4.80076e-6	4.48040e+4	2.99048e-6	7.46734e+4	2.47430e-6	1.04543e+5	2.21658e-6	1.34412e+5	2.05951e-6	1.64281e+5	1.95299e-6
1.47127e+4	4.83388e-6	4.41382e+4	3.00822e-6	7.35636e+4	2.48716e-6	1.02989e+5	2.22684e-6	1.32415e+5	2.06810e-6	1.61840e+5	1.96040e-6
1.44900e+4	4.86790e-6	4.34701e+4	3.02645e-6	7.24502e+4	2.50040e-6	1.01430e+5	2.23740e-6	1.30410e+5	2.07695e-6	1.59390e+5	1.96804e-6
1.42670e+4	4.90279e-6	4.28010e+4	3.04517e-6	7.13349e+4	2.51399e-6	9.98689e+4	2.24826e-6	1.28403e+5	2.08605e-6	1.56937e+5	1.97590e-6
1.40439e+4	4.93854e-6	4.21317e+4	3.06436e-6	7.02195e+4	2.52795e-6	9.83072e+4	2.25940e-6	1.26395e+5	2.09539e-6	1.54483e+5	1.98398e-6
1.38211e+4	4.97512e-6	4.14633e+4	3.08402e-6	6.91054e+4	2.54226e-6	9.67476e+4	2.27084e-6	1.24390e+5	2.10499e-6	1.52032e+5	1.99227e-6
1.35989e+4	5.01253e-6	4.07966e+4	3.10415e-6	6.79943e+4	2.55691e-6	9.51920e+4	2.28256e-6	1.22390e+5	2.11483e-6	1.49587e+5	2.00077e-6
1.33775e+4	5.05073e-6	4.01325e+4	3.12472e-6	6.68875e+4	2.57190e-6	9.36425e+4	2.29456e-6	1.20398e+5	2.12490e-6	1.47153e+5	2.00949e-6
1.31573e+4	5.08972e-6	3.94718e+4	3.14574e-6	6.57863e+4	2.58723e-6	9.21009e+4	2.30684e-6	1.18415e+5	2.13521e-6	1.44730e+5	2.01841e-6
1.29384e+4	5.12947e-6	3.88152e+4	3.16719e-6	6.46920e+4	2.60288e-6	9.05688e+4	2.31938e-6	1.16446e+5	2.14576e-6	1.42322e+5	2.02754e-6
1.27211e+4	5.16997e-6	3.81633e+4	3.18906e-6	6.36056e+4	2.61886e-6	8.90478e+4	2.33219e-6	1.14490e+5	2.15653e-6	1.39932e+5	2.03687e-6
1.25056e+4	5.21120e-6	3.75168e+4	3.21135e-6	6.25281e+4	2.63515e-6	8.75393e+4	2.34526e-6	1.12551e+5	2.16753e-6	1.37562e+5	2.04640e-6
1.22921e+4	5.25314e-6	3.68763e+4	3.23405e-6	6.14604e+4	2.65175e-6	8.60446e+4	2.35859e-6	1.10629e+5	2.17875e-6	1.35213e+5	2.05613e-6
1.20807e+4	5.29578e-6	3.62421e+4	3.25715e-6	6.04035e+4	2.66866e-6	8.45649e+4	2.37217e-6	1.08726e+5	2.19019e-6	1.32888e+5	2.06604e-6
1.18716e+4	5.33910e-6	3.56148e+4	3.28063e-6	5.93580e+4	2.68587e-6	8.31012e+4	2.38601e-6	1.06844e+5	2.20184e-6	1.30588e+5	2.07615e-6
1.16649e+4	5.38308e-6	3.49948e+4	3.30450e-6	5.83247e+4	2.70337e-6	8.16545e+4	2.40008e-6	1.04984e+5	2.21371e-6	1.28314e+5	2.08645e-6
1.14608e+4	5.42770e-6	3.43824e+4	3.32875e-6	5.73040e+4	2.72115e-6	8.02256e+4	2.41440e-6	1.03147e+5	2.22578e-6	1.26069e+5	2.09694e-6
1.12593e+4	5.47296e-6	3.37780e+4	3.35336e-6	5.62967e+4	2.73922e-6	7.88153e+4	2.42895e-6	1.01334e+5	2.23806e-6	1.23853e+5	2.10760e-6
1.10606e+4	5.51883e-6	3.31818e+4	3.37832e-6	5.53030e+4	2.75757e-6	7.74242e+4	2.44373e-6	9.95454e+4	2.25054e-6	1.21667e+5	2.11845e-6
1.08647e+4	5.56530e-6	3.25941e+4	3.40364e-6	5.43235e+4	2.77618e-6	7.60529e+4	2.45874e-6	9.77823e+4	2.26322e-6	1.19512e+5	2.12947e-6
1.06717e+4	5.61236e-6	3.20151e+4	3.42930e-6	5.33584e+4	2.79507e-6	7.47018e+4	2.47397e-6	9.60452e+4	2.27609e-6	1.17389e+5	2.14067e-6
1.04816e+4	5.65998e-6	3.14449e+4	3.45529e-6	5.24082e+4	2.81421e-6	7.33714e+4	2.48942e-6	9.43347e+4	2.28916e-6	1.15298e+5	2.15204e-6
1.02946e+4	5.70816e-6	3.08837e+4	3.48161e-6	5.14729e+4	2.83361e-6	7.20620e+4	2.50509e-6	9.26511e+4	2.30242e-6	1.13240e+5	2.16358e-6
1.01105e+4	5.75689e-6	3.03316e+4	3.50825e-6	5.05527e+4	2.85325e-6	7.07738e+4	2.52097e-6	9.09949e+4	2.31586e-6	1.11216e+5	2.17528e-6
9.92959e+3	5.80614e-6	2.97888e+4	3.53521e-6	4.96479e+4	2.87314e-6	6.95071e+4	2.53705e-6	8.93663e+4	2.32948e-6	1.09225e+5	2.18715e-6
9.75172e+3	5.85591e-6	2.92552e+4	3.56246e-6	4.87586e+4	2.89327e-6	6.82620e+4	2.55334e-6	8.77655e+4	2.34328e-6	1.07269e+5	2.19918e-6
9.57695e+3	5.90618e-6	2.87308e+4	3.59002e-6	4.78847e+4	2.91364e-6	6.70386e+4	2.56983e-6	8.61925e+4	2.35726e-6	1.05346e+5	2.21137e-6
9.40528e+3	5.95694e-6	2.82158e+4	3.61787e-6	4.70264e+4	2.93423e-6	6.58370e+4	2.58651e-6	8.46475e+4	2.37141e-6	1.03458e+5	2.22371e-6
9.23672e+3	6.00818e-6	2.77102e+4	3.64600e-6	4.61836e+4	2.95505e-6	6.46570e+4	2.60339e-6	8.31305e+4	2.38572e-6	1.01604e+5	2.23621e-6
9.07126e+3	6.05988e-6	2.72138e+4	3.67441e-6	4.53563e+4	2.97609e-6	6.34988e+4	2.62045e-6	8.16413e+4	2.40021e-6	9.97838e+4	2.24885e-6