"Harmonic Energy (eV)"	"Harmonic: 1"	"Harmonic Energy (eV)"	"Harmonic: 3"	"Harmonic Energy (eV)"	"Harmonic: 5"	"Harmonic Energy (eV)"	"Harmonic: 7"	"Harmonic Energy (eV)"	"Harmonic: 9"	"Harmonic Energy (eV)"	"Harmonic: 11"
1.86203e+4	4.62902e-6	5.58608e+4	3.66273e-6	9.31014e+4	3.52265e-6	1.30342e+5	3.46842e-6	1.67582e+5	3.43961e-6	2.04823e+5	3.42175e-6
1.85214e+4	4.64026e-6	5.55643e+4	3.67111e-6	9.26072e+4	3.53061e-6	1.29650e+5	3.47621e-6	1.66693e+5	3.44731e-6	2.03736e+5	3.42939e-6
1.84120e+4	4.65400e-6	5.52359e+4	3.68047e-6	9.20598e+4	3.53949e-6	1.28884e+5	3.48491e-6	1.65708e+5	3.45592e-6	2.02532e+5	3.43794e-6
1.82922e+4	4.66667e-6	5.48767e+4	3.69081e-6	9.14611e+4	3.54931e-6	1.28046e+5	3.49452e-6	1.64630e+5	3.46542e-6	2.01214e+5	3.44737e-6
1.81627e+4	4.68304e-6	5.44880e+4	3.70211e-6	9.08133e+4	3.56005e-6	1.27139e+5	3.50503e-6	1.63464e+5	3.47582e-6	1.99789e+5	3.45769e-6
1.80237e+4	4.69826e-6	5.40712e+4	3.71438e-6	9.01187e+4	3.57169e-6	1.26166e+5	3.51644e-6	1.62214e+5	3.48709e-6	1.98261e+5	3.46889e-6
1.78759e+4	4.71597e-6	5.36277e+4	3.72760e-6	8.93795e+4	3.58425e-6	1.25131e+5	3.52873e-6	1.60883e+5	3.49925e-6	1.96635e+5	3.48096e-6
1.77196e+4	4.73620e-6	5.31589e+4	3.74266e-6	8.85982e+4	3.59769e-6	1.24038e+5	3.54190e-6	1.59477e+5	3.51226e-6	1.94916e+5	3.49388e-6
1.75555e+4	4.75513e-6	5.26664e+4	3.75776e-6	8.77774e+4	3.61202e-6	1.22888e+5	3.55593e-6	1.57999e+5	3.52614e-6	1.93110e+5	3.50766e-6
1.73839e+4	4.77786e-6	5.21517e+4	3.77378e-6	8.69195e+4	3.62722e-6	1.21687e+5	3.57081e-6	1.56455e+5	3.54086e-6	1.91223e+5	3.52227e-6
1.72054e+4	4.80052e-6	5.16163e+4	3.79071e-6	8.60272e+4	3.64328e-6	1.20438e+5	3.58655e-6	1.54849e+5	3.55641e-6	1.89260e+5	3.53772e-6
1.70206e+4	4.82437e-6	5.10618e+4	3.80853e-6	8.51031e+4	3.66019e-6	1.19144e+5	3.60311e-6	1.53186e+5	3.57279e-6	1.87227e+5	3.55398e-6
1.68300e+4	4.84939e-6	5.04899e+4	3.82723e-6	8.41498e+4	3.67794e-6	1.17810e+5	3.62050e-6	1.51470e+5	3.58998e-6	1.85130e+5	3.57105e-6
1.66340e+4	4.87556e-6	4.99020e+4	3.84681e-6	8.31699e+4	3.69652e-6	1.16438e+5	3.63869e-6	1.49706e+5	3.60797e-6	1.82974e+5	3.58892e-6
1.64332e+4	4.90288e-6	4.92997e+4	3.86724e-6	8.21661e+4	3.71591e-6	1.15033e+5	3.65769e-6	1.47899e+5	3.62676e-6	1.80765e+5	3.60757e-6
1.62282e+4	4.93131e-6	4.86845e+4	3.88852e-6	8.11408e+4	3.73611e-6	1.13597e+5	3.67747e-6	1.46053e+5	3.64632e-6	1.78510e+5	3.62699e-6
1.60193e+4	4.96085e-6	4.80580e+4	3.91062e-6	8.00966e+4	3.75709e-6	1.12135e+5	3.69802e-6	1.44174e+5	3.66664e-6	1.76212e+5	3.64717e-6
1.58072e+4	4.99146e-6	4.74215e+4	3.93354e-6	7.90358e+4	3.77885e-6	1.10650e+5	3.71933e-6	1.42264e+5	3.68772e-6	1.73879e+5	3.66810e-6
1.55922e+4	5.02314e-6	4.67765e+4	3.95726e-6	7.79609e+4	3.80137e-6	1.09145e+5	3.74139e-6	1.40330e+5	3.70953e-6	1.71514e+5	3.68977e-6
1.53748e+4	5.05584e-6	4.61244e+4	3.98177e-6	7.68740e+4	3.82463e-6	1.07624e+5	3.76419e-6	1.38373e+5	3.73207e-6	1.69123e+5	3.71215e-6
1.51555e+4	5.08957e-6	4.54665e+4	4.00705e-6	7.57775e+4	3.84864e-6	1.06089e+5	3.78770e-6	1.36400e+5	3.75533e-6	1.66711e+5	3.73525e-6
1.49347e+4	5.12431e-6	4.48040e+4	4.03309e-6	7.46734e+4	3.87336e-6	1.04543e+5	3.81193e-6	1.34412e+5	3.77929e-6	1.64281e+5	3.75904e-6
1.47127e+4	5.16002e-6	4.41382e+4	4.05987e-6	7.35636e+4	3.89879e-6	1.02989e+5	3.83684e-6	1.32415e+5	3.80393e-6	1.61840e+5	3.78351e-6
1.44900e+4	5.19672e-6	4.34701e+4	4.08738e-6	7.24502e+4	3.92492e-6	1.01430e+5	3.86244e-6	1.30410e+5	3.82924e-6	1.59390e+5	3.80865e-6
1.42670e+4	5.23429e-6	4.28010e+4	4.11560e-6	7.13349e+4	3.95172e-6	9.98689e+4	3.88870e-6	1.28403e+5	3.85522e-6	1.56937e+5	3.83444e-6
1.40439e+4	5.27282e-6	4.21317e+4	4.14452e-6	7.02195e+4	3.97919e-6	9.83072e+4	3.91562e-6	1.26395e+5	3.88184e-6	1.54483e+5	3.86088e-6
1.38211e+4	5.31225e-6	4.14633e+4	4.17413e-6	6.91054e+4	4.00732e-6	9.67476e+4	3.94318e-6	1.24390e+5	3.90909e-6	1.52032e+5	3.88795e-6
1.35989e+4	5.35255e-6	4.07966e+4	4.20440e-6	6.79943e+4	4.03608e-6	9.51920e+4	3.97136e-6	1.22390e+5	3.93697e-6	1.49587e+5	3.91564e-6
1.33775e+4	5.39371e-6	4.01325e+4	4.23534e-6	6.68875e+4	4.06546e-6	9.36425e+4	4.00016e-6	1.20398e+5	3.96545e-6	1.47153e+5	3.94392e-6
1.31573e+4	5.43571e-6	3.94718e+4	4.26691e-6	6.57863e+4	4.09628e-6	9.21009e+4	4.02955e-6	1.18415e+5	3.99453e-6	1.44730e+5	3.97280e-6
1.29384e+4	5.47853e-6	3.88152e+4	4.29911e-6	6.46920e+4	4.12690e-6	9.05688e+4	4.05954e-6	1.16446e+5	4.02419e-6	1.42322e+5	4.00226e-6
1.27211e+4	5.52216e-6	3.81633e+4	4.33192e-6	6.36056e+4	4.15810e-6	8.90478e+4	4.09010e-6	1.14490e+5	4.05442e-6	1.39932e+5	4.03227e-6
1.25056e+4	5.56656e-6	3.75168e+4	4.36534e-6	6.25281e+4	4.18987e-6	8.75393e+4	4.12122e-6	1.12551e+5	4.08519e-6	1.37562e+5	4.06284e-6
1.22921e+4	5.61172e-6	3.68763e+4	4.39934e-6	6.14604e+4	4.22221e-6	8.60446e+4	4.15289e-6	1.10629e+5	4.11652e-6	1.35213e+5	4.09397e-6
1.20807e+4	5.65763e-6	3.62421e+4	4.43391e-6	6.04035e+4	4.25509e-6	8.45649e+4	4.18509e-6	1.08726e+5	4.14839e-6	1.32888e+5	4.12561e-6
1.18716e+4	5.70427e-6	3.56148e+4	4.46904e-6	5.93580e+4	4.28850e-6	8.31012e+4	4.21782e-6	1.06844e+5	4.18077e-6	1.30588e+5	4.15778e-6
1.16649e+4	5.75161e-6	3.49948e+4	4.50471e-6	5.83247e+4	4.32244e-6	8.16545e+4	4.25106e-6	1.04984e+5	4.21364e-6	1.28314e+5	4.19045e-6
1.14608e+4	5.79965e-6	3.43824e+4	4.54092e-6	5.73040e+4	4.35688e-6	8.02256e+4	4.28480e-6	1.03147e+5	4.24702e-6	1.26069e+5	4.22358e-6
1.12593e+4	5.84836e-6	3.37780e+4	4.57764e-6	5.62967e+4	4.39183e-6	7.88153e+4	4.31903e-6	1.01334e+5	4.28088e-6	1.23853e+5	4.25722e-6
1.10606e+4	5.89773e-6	3.31818e+4	4.61488e-6	5.53030e+4	4.42726e-6	7.74242e+4	4.35373e-6	9.95454e+4	4.31522e-6	1.21667e+5	4.29132e-6
1.08647e+4	5.94774e-6	3.25941e+4	4.65261e-6	5.43235e+4	4.46316e-6	7.60529e+4	4.38967e-6	9.77823e+4	4.35001e-6	1.19512e+5	4.32589e-6
1.06717e+4	5.99837e-6	3.20151e+4	4.69082e-6	5.33584e+4	4.49952e-6	7.47018e+4	4.42531e-6	9.60452e+4	4.38526e-6	1.17389e+5	4.36089e-6
1.04816e+4	6.04961e-6	3.14449e+4	4.72951e-6	5.24082e+4	4.53634e-6	7.33714e+4	4.46140e-6	9.43347e+4	4.42094e-6	1.15298e+5	4.39634e-6
1.02946e+4	6.10144e-6	3.08837e+4	4.76865e-6	5.14729e+4	4.57360e-6	7.20620e+4	4.49792e-6	9.26511e+4	4.45720e-6	1.13240e+5	4.43221e-6
1.01105e+4	6.15524e-6	3.03316e+4	4.80825e-6	5.05527e+4	4.61129e-6	7.07738e+4	4.53487e-6	9.09949e+4	4.49358e-6	1.11216e+5	4.46850e-6
9.92959e+3	6.20826e-6	2.97888e+4	4.84828e-6	4.96479e+4	4.64939e-6	6.95071e+4	4.57222e-6	8.93663e+4	4.53052e-6	1.09225e+5	4.50519e-6
9.75172e+3	6.26035e-6	2.92552e+4	4.88874e-6	4.87586e+4	4.68791e-6	6.82620e+4	4.60998e-6	8.77655e+4	4.56785e-6	1.07269e+5	4.54228e-6
9.57695e+3	6.31592e-6	2.87308e+4	4.92961e-6	4.78847e+4	4.72682e-6	6.70386e+4	4.64813e-6	8.61925e+4	4.60558e-6	1.05346e+5	4.57975e-6
9.40528e+3	6.37054e-6	2.82158e+4	4.97089e-6	4.70264e+4	4.76612e-6	6.58370e+4	4.68667e-6	8.46475e+4	4.64442e-6	1.03458e+5	4.61760e-6
9.23672e+3	6.42567e-6	2.77102e+4	5.01256e-6	4.61836e+4	4.80581e-6	6.46570e+4	4.72557e-6	8.31305e+4	4.68292e-6	1.01604e+5	4.65582e-6
9.07126e+3	6.48129e-6	2.72138e+4	5.05463e-6	4.53563e+4	4.84586e-6	6.34988e+4	4.76484e-6	8.16413e+4	4.72177e-6	9.97838e+4	4.69440e-6