"Harmonic Energy (eV)"	"Harmonic: 1: spatial_profile-7.json"	"Harmonic Energy (eV)"	"Harmonic: 3: spatial_profile-7.json"	"Harmonic Energy (eV)"	"Harmonic: 5: spatial_profile-7.json"	"Harmonic Energy (eV)"	"Harmonic: 7: spatial_profile-7.json"	"Harmonic Energy (eV)"	"Harmonic: 9: spatial_profile-7.json"	"Harmonic Energy (eV)"	"Harmonic: 11: spatial_profile-7.json"
1.86203e+4	1.28631e-6	5.58608e+4	7.42650e-7	9.31014e+4	5.75254e-7	1.30342e+5	4.86179e-7	1.67582e+5	4.28769e-7	2.04823e+5	3.87836e-7
1.85214e+4	1.28974e-6	5.55643e+4	7.44629e-7	9.26072e+4	5.76787e-7	1.29650e+5	4.87474e-7	1.66693e+5	4.29912e-7	2.03736e+5	3.88870e-7
1.84120e+4	1.29356e-6	5.52359e+4	7.46840e-7	9.20598e+4	5.78499e-7	1.28884e+5	4.88921e-7	1.65708e+5	4.31188e-7	2.02532e+5	3.90024e-7
1.82922e+4	1.29779e-6	5.48767e+4	7.49280e-7	9.14611e+4	5.80390e-7	1.28046e+5	4.90519e-7	1.64630e+5	4.32597e-7	2.01214e+5	3.91299e-7
1.81627e+4	1.30241e-6	5.44880e+4	7.51947e-7	9.08133e+4	5.82456e-7	1.27139e+5	4.92265e-7	1.63464e+5	4.34137e-7	1.99789e+5	3.92692e-7
1.80237e+4	1.30742e-6	5.40712e+4	7.54840e-7	9.01187e+4	5.84696e-7	1.26166e+5	4.94159e-7	1.62214e+5	4.35807e-7	1.98261e+5	3.94202e-7
1.78759e+4	1.31282e-6	5.36277e+4	7.57955e-7	8.93795e+4	5.87109e-7	1.25131e+5	4.96198e-7	1.60883e+5	4.37605e-7	1.96635e+5	3.95829e-7
1.77196e+4	1.31859e-6	5.31589e+4	7.61289e-7	8.85982e+4	5.89692e-7	1.24038e+5	4.98381e-7	1.59477e+5	4.39531e-7	1.94916e+5	3.97570e-7
1.75555e+4	1.32474e-6	5.26664e+4	7.64841e-7	8.77774e+4	5.92443e-7	1.22888e+5	5.00706e-7	1.57999e+5	4.41581e-7	1.93110e+5	3.99425e-7
1.73839e+4	1.33126e-6	5.21517e+4	7.68606e-7	8.69195e+4	5.95360e-7	1.21687e+5	5.03171e-7	1.56455e+5	4.43755e-7	1.91223e+5	4.01391e-7
1.72054e+4	1.33815e-6	5.16163e+4	7.72582e-7	8.60272e+4	5.98439e-7	1.20438e+5	5.05773e-7	1.54849e+5	4.46050e-7	1.89260e+5	4.03468e-7
1.70206e+4	1.34540e-6	5.10618e+4	7.76765e-7	8.51031e+4	6.01680e-7	1.19144e+5	5.08512e-7	1.53186e+5	4.48465e-7	1.87227e+5	4.05652e-7
1.68300e+4	1.35300e-6	5.04899e+4	7.81152e-7	8.41498e+4	6.05078e-7	1.17810e+5	5.11384e-7	1.51470e+5	4.50999e-7	1.85130e+5	4.07943e-7
1.66340e+4	1.36094e-6	4.99020e+4	7.85740e-7	8.31699e+4	6.08632e-7	1.16438e+5	5.14388e-7	1.49706e+5	4.53647e-7	1.82974e+5	4.10340e-7
1.64332e+4	1.36923e-6	4.92997e+4	7.90526e-7	8.21661e+4	6.12338e-7	1.15033e+5	5.17520e-7	1.47899e+5	4.56410e-7	1.80765e+5	4.12838e-7
1.62282e+4	1.37785e-6	4.86845e+4	7.95504e-7	8.11408e+4	6.16195e-7	1.13597e+5	5.20780e-7	1.46053e+5	4.59285e-7	1.78510e+5	4.15439e-7
1.60193e+4	1.38681e-6	4.80580e+4	8.00673e-7	8.00966e+4	6.20199e-7	1.12135e+5	5.24164e-7	1.44174e+5	4.62269e-7	1.76212e+5	4.18138e-7
1.58072e+4	1.39608e-6	4.74215e+4	8.06028e-7	7.90358e+4	6.24347e-7	1.10650e+5	5.27669e-7	1.42264e+5	4.65361e-7	1.73879e+5	4.20935e-7
1.55922e+4	1.40567e-6	4.67765e+4	8.11566e-7	7.79609e+4	6.28636e-7	1.09145e+5	5.31295e-7	1.40330e+5	4.68558e-7	1.71514e+5	4.23827e-7
1.53748e+4	1.41558e-6	4.61244e+4	8.17283e-7	7.68740e+4	6.33065e-7	1.07624e+5	5.35037e-7	1.38373e+5	4.71859e-7	1.69123e+5	4.26812e-7
1.51555e+4	1.42578e-6	4.54665e+4	8.23175e-7	7.57775e+4	6.37629e-7	1.06089e+5	5.38894e-7	1.36400e+5	4.75260e-7	1.66711e+5	4.29889e-7
1.49347e+4	1.43628e-6	4.48040e+4	8.29238e-7	7.46734e+4	6.42325e-7	1.04543e+5	5.42864e-7	1.34412e+5	4.78761e-7	1.64281e+5	4.33056e-7
1.47127e+4	1.44708e-6	4.41382e+4	8.35470e-7	7.35636e+4	6.47152e-7	1.02989e+5	5.46943e-7	1.32415e+5	4.82359e-7	1.61840e+5	4.36310e-7
1.44900e+4	1.45815e-6	4.34701e+4	8.41865e-7	7.24502e+4	6.52106e-7	1.01430e+5	5.51130e-7	1.30410e+5	4.86051e-7	1.59390e+5	4.39650e-7
1.42670e+4	1.46951e-6	4.28010e+4	8.48421e-7	7.13349e+4	6.57184e-7	9.98689e+4	5.55422e-7	1.28403e+5	4.89836e-7	1.56937e+5	4.43073e-7
1.40439e+4	1.48113e-6	4.21317e+4	8.55133e-7	7.02195e+4	6.62383e-7	9.83072e+4	5.59816e-7	1.26395e+5	4.93711e-7	1.54483e+5	4.46579e-7
1.38211e+4	1.49302e-6	4.14633e+4	8.61998e-7	6.91054e+4	6.67701e-7	9.67476e+4	5.64310e-7	1.24390e+5	4.97675e-7	1.52032e+5	4.50164e-7
1.35989e+4	1.50517e-6	4.07966e+4	8.69012e-7	6.79943e+4	6.73134e-7	9.51920e+4	5.68902e-7	1.22390e+5	5.01725e-7	1.49587e+5	4.53827e-7
1.33775e+4	1.51758e-6	4.01325e+4	8.76173e-7	6.68875e+4	6.78681e-7	9.36425e+4	5.73590e-7	1.20398e+5	5.05859e-7	1.47153e+5	4.57566e-7
1.31573e+4	1.53022e-6	3.94718e+4	8.83475e-7	6.57863e+4	6.84337e-7	9.21009e+4	5.78370e-7	1.18415e+5	5.10075e-7	1.44730e+5	4.61380e-7
1.29384e+4	1.54311e-6	3.88152e+4	8.90917e-7	6.46920e+4	6.90101e-7	9.05688e+4	5.83242e-7	1.16446e+5	5.14371e-7	1.42322e+5	4.65266e-7
1.27211e+4	1.55624e-6	3.81633e+4	8.98493e-7	6.36056e+4	6.95970e-7	8.90478e+4	5.88202e-7	1.14490e+5	5.18745e-7	1.39932e+5	4.69223e-7
1.25056e+4	1.56959e-6	3.75168e+4	9.06201e-7	6.25281e+4	7.01941e-7	8.75393e+4	5.93248e-7	1.12551e+5	5.23196e-7	1.37562e+5	4.73248e-7
1.22921e+4	1.58316e-6	3.68763e+4	9.14038e-7	6.14604e+4	7.08011e-7	8.60446e+4	5.98379e-7	1.10629e+5	5.27720e-7	1.35213e+5	4.77341e-7
1.20807e+4	1.59695e-6	3.62421e+4	9.22001e-7	6.04035e+4	7.14179e-7	8.45649e+4	6.03591e-7	1.08726e+5	5.32317e-7	1.32888e+5	4.81499e-7
1.18716e+4	1.61095e-6	3.56148e+4	9.30085e-7	5.93580e+4	7.20441e-7	8.31012e+4	6.08883e-7	1.06844e+5	5.36985e-7	1.30588e+5	4.85721e-7
1.16649e+4	1.62516e-6	3.49948e+4	9.38288e-7	5.83247e+4	7.26795e-7	8.16545e+4	6.14254e-7	1.04984e+5	5.41721e-7	1.28314e+5	4.90005e-7
1.14608e+4	1.63957e-6	3.43824e+4	9.46607e-7	5.73040e+4	7.33239e-7	8.02256e+4	6.19700e-7	1.03147e+5	5.46524e-7	1.26069e+5	4.94349e-7
1.12593e+4	1.65418e-6	3.37780e+4	9.55039e-7	5.62967e+4	7.39770e-7	7.88153e+4	6.25220e-7	1.01334e+5	5.51392e-7	1.23853e+5	4.98753e-7
1.10606e+4	1.66897e-6	3.31818e+4	9.63580e-7	5.53030e+4	7.46386e-7	7.74242e+4	6.30811e-7	9.95454e+4	5.56323e-7	1.21667e+5	5.03213e-7
1.08647e+4	1.68395e-6	3.25941e+4	9.72229e-7	5.43235e+4	7.53085e-7	7.60529e+4	6.36473e-7	9.77823e+4	5.61316e-7	1.19512e+5	5.07730e-7
1.06717e+4	1.69911e-6	3.20151e+4	9.80981e-7	5.33584e+4	7.59865e-7	7.47018e+4	6.42203e-7	9.60452e+4	5.66370e-7	1.17389e+5	5.12301e-7
1.04816e+4	1.71444e-6	3.14449e+4	9.89835e-7	5.24082e+4	7.66723e-7	7.33714e+4	6.47999e-7	9.43347e+4	5.71482e-7	1.15298e+5	5.16925e-7
1.02946e+4	1.72995e-6	3.08837e+4	9.98788e-7	5.14729e+4	7.73658e-7	7.20620e+4	6.53860e-7	9.26511e+4	5.76650e-7	1.13240e+5	5.21600e-7
1.01105e+4	1.74562e-6	3.03316e+4	1.00784e-6	5.05527e+4	7.80667e-7	7.07738e+4	6.59784e-7	9.09949e+4	5.81874e-7	1.11216e+5	5.26325e-7
9.92959e+3	1.76146e-6	2.97888e+4	1.01698e-6	4.96479e+4	7.87748e-7	6.95071e+4	6.65768e-7	8.93663e+4	5.87153e-7	1.09225e+5	5.31100e-7
9.75172e+3	1.77745e-6	2.92552e+4	1.02621e-6	4.87586e+4	7.94900e-7	6.82620e+4	6.71813e-7	8.77655e+4	5.92483e-7	1.07269e+5	5.35921e-7
9.57695e+3	1.79359e-6	2.87308e+4	1.03553e-6	4.78847e+4	8.02120e-7	6.70386e+4	6.77915e-7	8.61925e+4	5.97865e-7	1.05346e+5	5.40789e-7
9.40528e+3	1.80989e-6	2.82158e+4	1.04494e-6	4.70264e+4	8.09407e-7	6.58370e+4	6.84074e-7	8.46475e+4	6.03296e-7	1.03458e+5	5.45702e-7
9.23672e+3	1.82633e-6	2.77102e+4	1.05443e-6	4.61836e+4	8.16759e-7	6.46570e+4	6.90287e-7	8.31305e+4	6.08776e-7	1.01604e+5	5.50659e-7
9.07126e+3	1.84291e-6	2.72138e+4	1.06400e-6	4.53563e+4	8.24174e-7	6.34988e+4	6.96554e-7	8.16413e+4	6.14303e-7	9.97838e+4	5.55658e-7